# energy(eV) alpha
0.000000000000000000e+00 2.242255239031921477e+00
3.969999999999999918e-02 2.242336729318560096e+00
7.929999999999999549e-02 2.242543740320869006e+00
1.189999999999999947e-01 2.242906468131483422e+00
1.585999999999999910e-01 2.243401815887230644e+00
1.983000000000000040e-01 2.244052709460394812e+00
2.379999999999999893e-01 2.244836616420333719e+00
2.776000000000000134e-01 2.245767366787070785e+00
3.173000000000000265e-01 2.246853094028817388e+00
3.568999999999999950e-01 2.248093668076512675e+00
3.966000000000000081e-01 2.249473145911857763e+00
4.363000000000000211e-01 2.251014640088773611e+00
4.758999999999999897e-01 2.252708900280417481e+00
5.155999999999999472e-01 2.254556804124544733e+00
5.553000000000000158e-01 2.256572290082135002e+00
5.948999999999999844e-01 2.258755001342319879e+00
6.346000000000000529e-01 2.261104354487181389e+00
6.742000000000000215e-01 2.263612073044958706e+00
7.138999999999999790e-01 2.266300335207895422e+00
7.536000000000000476e-01 2.269182824056729331e+00
7.932000000000000162e-01 2.272243865448361433e+00
8.328999999999999737e-01 2.275497638464097694e+00
8.725000000000000533e-01 2.278951019218195206e+00
9.122000000000000108e-01 2.282601942069160117e+00
9.518999999999999684e-01 2.286479561417776640e+00
9.915000000000000480e-01 2.290560328381720190e+00
1.031199999999999894e+00 2.294879658161728120e+00
1.070799999999999974e+00 2.299443308474661940e+00
1.110500000000000043e+00 2.304249276246130851e+00
1.150199999999999889e+00 2.309318793437681983e+00
1.189799999999999969e+00 2.314656005471372957e+00
1.229500000000000037e+00 2.320295800123118202e+00
1.269099999999999895e+00 2.326235418300000912e+00
1.308799999999999963e+00 2.332500832817326231e+00
1.348500000000000032e+00 2.339111551857500082e+00
1.388099999999999890e+00 2.346092302634769311e+00
1.427799999999999958e+00 2.353461045062519741e+00
1.467400000000000038e+00 2.361263361102698077e+00
1.507100000000000106e+00 2.369523056624811108e+00
1.546799999999999953e+00 2.378291558403531347e+00
1.586400000000000032e+00 2.387618858227962271e+00
1.626100000000000101e+00 2.397567968642491998e+00
1.665799999999999947e+00 2.408221604571631591e+00
1.705400000000000027e+00 2.419680858397677881e+00
1.745100000000000096e+00 2.432113650921515990e+00
1.784699999999999953e+00 2.445807937837661594e+00
1.824400000000000022e+00 2.461028584178889478e+00
1.864100000000000090e+00 2.477714707955279483e+00
1.903699999999999948e+00 2.495592625057734715e+00
1.943400000000000016e+00 2.514388304141747188e+00
1.983000000000000096e+00 2.533748136059528200e+00
2.022699999999999942e+00 2.553423440609217554e+00
2.062399999999999789e+00 2.573250429164088970e+00
2.101999999999999869e+00 2.593050142377259171e+00
2.141700000000000159e+00 2.612659211572835094e+00
2.181299999999999795e+00 2.631904087263232661e+00
2.221000000000000085e+00 2.650536410153142786e+00
2.260699999999999932e+00 2.668325398091430323e+00
2.300300000000000011e+00 2.685196392313282221e+00
2.339999999999999858e+00 2.701002845139024888e+00
2.379599999999999937e+00 2.715813332433095972e+00
2.419299999999999784e+00 2.729968512856043361e+00
2.459000000000000075e+00 2.743767560183993481e+00
2.498600000000000154e+00 2.757741996004032359e+00
2.538300000000000001e+00 2.772958687182363935e+00
2.577900000000000080e+00 2.789733086937661533e+00
2.617599999999999927e+00 2.807227056520314790e+00
2.657300000000000217e+00 2.824118396345817406e+00
2.696899999999999853e+00 2.838467711184503806e+00
2.736600000000000144e+00 2.848880167113958084e+00
2.776299999999999990e+00 2.855606094941360418e+00
2.815900000000000070e+00 2.860462914528346445e+00
2.855599999999999916e+00 2.863844932703962787e+00
2.895199999999999996e+00 2.865638751744860713e+00
2.934899999999999842e+00 2.864904197603609148e+00
2.974600000000000133e+00 2.860216189922557106e+00
3.014200000000000212e+00 2.850680252442162388e+00
3.053900000000000059e+00 2.835754659466211525e+00
3.093500000000000139e+00 2.818314032624841037e+00
3.133199999999999985e+00 2.804995800338231593e+00
3.172899999999999832e+00 2.797467089655160777e+00
3.212499999999999911e+00 2.790971335039812207e+00
3.252200000000000202e+00 2.780729726613705655e+00
3.291799999999999837e+00 2.769563475551104492e+00
3.331500000000000128e+00 2.759275561499340501e+00
3.371199999999999974e+00 2.750610655552532258e+00
3.410800000000000054e+00 2.742210094100241413e+00
3.450499999999999901e+00 2.730719284628002619e+00
3.490099999999999980e+00 2.714161640785412999e+00
3.529799999999999827e+00 2.691296274959247725e+00
3.569500000000000117e+00 2.664049729054601912e+00
3.609100000000000197e+00 2.634708498634643625e+00
3.648800000000000043e+00 2.604216916262301673e+00
3.688400000000000123e+00 2.571522938593063579e+00
3.728099999999999969e+00 2.539395982333380708e+00
3.767799999999999816e+00 2.511095957827077285e+00
3.807399999999999896e+00 2.487525125033606788e+00
3.847100000000000186e+00 2.463500413049856785e+00
3.886800000000000033e+00 2.433535156104889907e+00
3.926400000000000112e+00 2.399402658457528315e+00
3.966099999999999959e+00 2.368715323965799868e+00
4.005700000000000038e+00 2.332889978942170650e+00
4.045399999999999885e+00 2.295450485317637401e+00
4.085099999999999731e+00 2.252432506029048653e+00
4.124699999999999811e+00 2.194732280722338391e+00
4.164399999999999658e+00 2.141192696073917823e+00
4.203999999999999737e+00 2.088820107562800565e+00
4.243699999999999584e+00 2.040507062507734837e+00
4.283400000000000318e+00 1.993190494339307506e+00
4.323000000000000398e+00 1.951081136160206286e+00
4.362700000000000244e+00 1.913068504017638505e+00
4.402300000000000324e+00 1.878693157932644464e+00
4.442000000000000171e+00 1.848924842080791109e+00
4.481700000000000017e+00 1.818847678624857522e+00
4.521300000000000097e+00 1.790086304069429257e+00
4.560999999999999943e+00 1.761752722153472561e+00
4.600600000000000023e+00 1.732539459202207199e+00
4.640299999999999869e+00 1.702346848543432545e+00
4.679999999999999716e+00 1.672965924609920219e+00
4.719599999999999795e+00 1.647226522083547806e+00
4.759299999999999642e+00 1.625725009597164261e+00
4.798899999999999721e+00 1.604400829832096420e+00
4.838599999999999568e+00 1.577205773225813346e+00
4.878300000000000303e+00 1.547599729785385403e+00
4.917900000000000382e+00 1.522154353625024825e+00
4.957600000000000229e+00 1.499419395429161250e+00
4.997300000000000075e+00 1.480389650875825858e+00
5.036900000000000155e+00 1.463760798893126935e+00
5.076600000000000001e+00 1.440633680147319184e+00
5.116200000000000081e+00 1.438408724824746798e+00
5.155899999999999928e+00 1.455016477250703488e+00
5.195599999999999774e+00 1.469321385960981718e+00
5.235199999999999854e+00 1.461657466703988328e+00
5.274899999999999700e+00 1.441095531715142375e+00
5.314499999999999780e+00 1.432635501207455864e+00
5.354199999999999626e+00 1.419612489756802987e+00
5.393900000000000361e+00 1.459670326861008505e+00
5.433500000000000441e+00 1.479192909797983901e+00
5.473200000000000287e+00 1.449724954228974738e+00
5.512800000000000367e+00 1.440711566317219194e+00
5.552500000000000213e+00 1.442594163065184398e+00
5.592200000000000060e+00 1.455970352836568837e+00
5.631800000000000139e+00 1.464847473830424684e+00
5.671499999999999986e+00 1.470834414946952329e+00
5.711100000000000065e+00 1.471424767918246390e+00
5.750799999999999912e+00 1.475763486394306767e+00
5.790499999999999758e+00 1.477448369433516540e+00
5.830099999999999838e+00 1.476136875348106559e+00
5.869799999999999685e+00 1.467623340989816505e+00
5.909399999999999764e+00 1.465236978486743391e+00
5.949099999999999611e+00 1.477664187336668267e+00
5.988800000000000345e+00 1.505895962452482806e+00
6.028400000000000425e+00 1.532936900557773541e+00
6.068100000000000271e+00 1.554647294458811446e+00
6.107800000000000118e+00 1.550874828881219303e+00
6.147400000000000198e+00 1.532660165019819054e+00
6.187100000000000044e+00 1.528318368679131511e+00
6.226700000000000124e+00 1.545830050866449312e+00
6.266399999999999970e+00 1.576842343883615438e+00
6.306099999999999817e+00 1.617110791578427076e+00
6.345699999999999896e+00 1.629491339544742790e+00
6.385399999999999743e+00 1.647342629347028353e+00
6.424999999999999822e+00 1.670591431532226112e+00
6.464699999999999669e+00 1.686351585745205606e+00
6.504400000000000404e+00 1.703534910822093629e+00
6.543999999999999595e+00 1.714591672040649772e+00
6.583700000000000330e+00 1.714510211122851846e+00
6.623300000000000409e+00 1.707140921225018371e+00
6.663000000000000256e+00 1.721667801860788050e+00
6.702700000000000102e+00 1.733182969933892759e+00
6.742300000000000182e+00 1.733703748547621659e+00
6.782000000000000028e+00 1.758377317536021112e+00
6.821600000000000108e+00 1.751788822143453661e+00
6.861299999999999955e+00 1.750962256933947359e+00
6.900999999999999801e+00 1.782464931700771249e+00
6.940599999999999881e+00 1.818907945626370370e+00
6.980299999999999727e+00 1.833604652798404899e+00
7.019899999999999807e+00 1.820833348968121435e+00
7.059599999999999653e+00 1.844671614107013191e+00
7.099300000000000388e+00 1.882416987650968654e+00
7.138899999999999579e+00 1.918658006348193723e+00
7.178600000000000314e+00 1.949455333966485071e+00
7.218300000000000161e+00 1.977282253036944937e+00
7.257900000000000240e+00 2.004349143813135115e+00
7.297600000000000087e+00 2.026088388395404394e+00
7.337200000000000166e+00 2.024455567378291576e+00
7.376900000000000013e+00 1.977051558812534582e+00
7.416599999999999859e+00 1.869239718159399155e+00
7.456199999999999939e+00 1.758869734941480134e+00
7.495899999999999785e+00 1.779915469183033228e+00
7.535499999999999865e+00 1.795295189980912198e+00
7.575199999999999712e+00 1.800339157037556870e+00
7.614899999999999558e+00 1.799372805975755663e+00
7.654499999999999638e+00 1.809432590143989161e+00
7.694200000000000372e+00 1.823985522133127368e+00
7.733799999999999564e+00 1.813902443258357255e+00
7.773500000000000298e+00 1.801147158275512972e+00
7.813200000000000145e+00 1.795830338346240618e+00
7.852800000000000225e+00 1.780900197419061914e+00
7.892500000000000071e+00 1.680696473884095710e+00
7.932100000000000151e+00 1.686355859648957178e+00
7.971799999999999997e+00 1.697209570117458544e+00
8.011499999999999844e+00 1.726355879395101933e+00
8.051099999999999923e+00 1.756911898337279343e+00
8.090799999999999770e+00 1.754730382636592090e+00
8.130399999999999849e+00 1.758222938229304200e+00
8.170099999999999696e+00 1.776550909005603529e+00
8.209799999999999542e+00 1.770286811181434050e+00
8.249399999999999622e+00 1.717574460042241569e+00
8.289099999999999469e+00 1.739016721451350111e+00
8.328799999999999315e+00 1.762858804415666558e+00
8.368399999999999395e+00 1.784474986342595715e+00
8.408099999999999241e+00 1.795126476500210844e+00
8.447699999999999321e+00 1.789439810877428316e+00
8.487399999999999167e+00 1.764714453840945829e+00
8.527100000000000790e+00 1.735591628945130971e+00
8.566700000000000870e+00 1.693448287793828388e+00
8.606400000000000716e+00 1.639209509682801214e+00
8.646000000000000796e+00 1.638050307457006749e+00
8.685700000000000642e+00 1.646414954046726109e+00
8.725400000000000489e+00 1.669137328546011156e+00
8.765000000000000568e+00 1.654109309074818457e+00
8.804700000000000415e+00 1.605335588726322316e+00
8.844300000000000495e+00 1.593542917615649035e+00
8.884000000000000341e+00 1.586200063028963214e+00
8.923700000000000188e+00 1.604549100489268909e+00
8.963300000000000267e+00 1.605781176749303540e+00
9.003000000000000114e+00 1.595428871409647176e+00
9.042600000000000193e+00 1.519810318156893603e+00
9.082300000000000040e+00 1.422177708783593397e+00
9.121999999999999886e+00 1.360700681474507068e+00
9.161599999999999966e+00 1.298873350758044776e+00
9.201299999999999812e+00 1.305310290679448260e+00
9.240899999999999892e+00 1.276712717038600120e+00
9.280599999999999739e+00 1.207727058083379656e+00
9.320299999999999585e+00 1.174247240177503038e+00
9.359899999999999665e+00 1.215318387447436255e+00
9.399599999999999511e+00 1.235722119654828255e+00
9.439299999999999358e+00 1.233160754897007383e+00
9.478899999999999437e+00 1.207340487262761553e+00
9.518599999999999284e+00 1.186771032330023345e+00
9.558199999999999363e+00 1.176902153131063056e+00
9.597899999999999210e+00 1.131850916151976527e+00
9.637600000000000833e+00 1.150730365393046739e+00
9.677199999999999136e+00 1.210067132847732374e+00
9.716900000000000759e+00 1.247167635455948220e+00
9.756500000000000838e+00 1.257506063580638322e+00
9.796200000000000685e+00 1.205343175694074453e+00
9.835900000000000531e+00 1.157688727732972822e+00
9.875500000000000611e+00 1.137074336702691868e+00
9.915200000000000458e+00 1.148820043152744663e+00
9.954800000000000537e+00 1.164520571164836538e+00
9.994500000000000384e+00 1.170287073616139928e+00
1.003420000000000023e+01 1.168631382672511432e+00
1.007380000000000031e+01 1.156461007999713297e+00
1.011350000000000016e+01 1.135485454532157323e+00
1.015310000000000024e+01 1.102117741980152221e+00
1.019280000000000008e+01 1.085430946410577580e+00
1.023249999999999993e+01 1.118315487403619191e+00
1.027210000000000001e+01 1.116241410333702166e+00
1.031179999999999986e+01 1.102542418706647487e+00
1.035139999999999993e+01 1.104741039709691730e+00
1.039109999999999978e+01 1.089858136717413828e+00
1.043079999999999963e+01 1.072958739726654009e+00
1.047039999999999971e+01 1.055996160214267343e+00
1.051009999999999955e+01 1.049170176087565576e+00
1.054979999999999940e+01 1.064566834304775167e+00
1.058939999999999948e+01 1.074034704043437261e+00
1.062909999999999933e+01 1.074484993273425282e+00
1.066869999999999941e+01 1.073395246559968097e+00
1.070839999999999925e+01 1.050963916039418411e+00
1.074810000000000088e+01 1.047005769383982710e+00
1.078769999999999918e+01 1.060504047312352371e+00
1.082740000000000080e+01 1.016009925737474617e+00
1.086700000000000088e+01 1.007931816159256755e+00
1.090670000000000073e+01 9.329456502658728390e-01
1.094640000000000057e+01 9.416090442347361256e-01
1.098600000000000065e+01 9.555775259906079677e-01
1.102570000000000050e+01 9.686588544514022070e-01
1.106530000000000058e+01 9.678096541534376707e-01
1.110500000000000043e+01 9.382377995204280730e-01
1.114470000000000027e+01 9.288660761187458315e-01
1.118430000000000035e+01 9.223990505871292322e-01
1.122400000000000020e+01 9.096624671345472368e-01
1.126360000000000028e+01 9.029361545402236899e-01
1.130330000000000013e+01 8.823542572192448752e-01
1.134299999999999997e+01 8.615968104750733048e-01
1.138260000000000005e+01 8.410762061039116499e-01
1.142229999999999990e+01 8.528147553438971684e-01
1.146189999999999998e+01 8.490290755555680580e-01
1.150159999999999982e+01 8.545202228805062195e-01
1.154129999999999967e+01 8.560513224200732019e-01
1.158089999999999975e+01 8.337543537657784443e-01
1.162059999999999960e+01 8.130370358461618263e-01
1.166029999999999944e+01 7.976581426478350778e-01
1.169989999999999952e+01 7.998139921665609053e-01
1.173959999999999937e+01 7.995095211055566198e-01
1.177919999999999945e+01 7.840068214002677838e-01
1.181889999999999930e+01 7.615010717498356119e-01
1.185859999999999914e+01 7.504585172030500129e-01
1.189819999999999922e+01 7.517235668457781239e-01
1.193790000000000084e+01 7.593685542864584415e-01
1.197749999999999915e+01 7.538350771915558468e-01
1.201720000000000077e+01 7.170976527746635298e-01
1.205690000000000062e+01 6.721138393516614684e-01
1.209650000000000070e+01 6.701437915778637455e-01
1.213620000000000054e+01 6.415466332490283863e-01
1.217580000000000062e+01 6.406561553166316703e-01
1.221550000000000047e+01 6.602443343979185197e-01
1.225520000000000032e+01 6.747704471902339352e-01
1.229480000000000040e+01 6.582197928173616486e-01
1.233450000000000024e+01 6.812887945580075044e-01
1.237410000000000032e+01 6.999249628466952533e-01
1.241380000000000017e+01 7.225273865751812297e-01
1.245350000000000001e+01 7.489167294400923547e-01
1.249310000000000009e+01 7.740513863477727075e-01
1.253279999999999994e+01 8.020546183856268607e-01
1.257240000000000002e+01 8.216698492238544427e-01
1.261209999999999987e+01 8.242826462719478053e-01
1.265179999999999971e+01 8.357519465285819793e-01
1.269139999999999979e+01 8.395771026371330326e-01
1.273109999999999964e+01 8.264327654974078508e-01
1.277079999999999949e+01 8.181062034935435712e-01
1.281039999999999957e+01 8.037380776986738917e-01
1.285009999999999941e+01 7.602315245982472769e-01
1.288969999999999949e+01 7.068479741134843231e-01
1.292939999999999934e+01 7.015812638118271716e-01
1.296909999999999918e+01 7.253819244082576612e-01
1.300869999999999926e+01 7.532397060643214459e-01
1.304840000000000089e+01 7.939439284293714483e-01
1.308799999999999919e+01 8.418644240423209801e-01
1.312770000000000081e+01 8.715106726886667765e-01
1.316740000000000066e+01 8.779230423724057042e-01
1.320700000000000074e+01 8.383428823613812142e-01
1.324670000000000059e+01 8.217480975884106087e-01
1.328630000000000067e+01 8.013630425141213820e-01
1.332600000000000051e+01 7.830029359961470092e-01
1.336570000000000036e+01 7.726932570039083403e-01
1.340530000000000044e+01 7.641861395253928269e-01
1.344500000000000028e+01 7.504115617272520966e-01
1.348460000000000036e+01 7.401471151330043519e-01
1.352430000000000021e+01 7.455822071398590101e-01
1.356400000000000006e+01 7.548729049770939170e-01
1.360360000000000014e+01 7.598422061516327819e-01
1.364329999999999998e+01 7.561996803487172070e-01
1.368290000000000006e+01 7.738637935117701483e-01
1.372259999999999991e+01 8.025597607501757658e-01
1.376229999999999976e+01 7.994980198783806502e-01
1.380189999999999984e+01 7.973637645835328636e-01
1.384159999999999968e+01 7.508650942223461522e-01
1.388129999999999953e+01 7.389432605102224105e-01
1.392089999999999961e+01 7.525520682099566816e-01
1.396059999999999945e+01 7.564140822744809256e-01
1.400019999999999953e+01 7.665882481867727360e-01
1.403989999999999938e+01 7.726767459411926220e-01
1.407959999999999923e+01 7.613332164263912905e-01
1.411919999999999931e+01 7.351814827780638328e-01
1.415889999999999915e+01 7.201414491616484614e-01
1.419849999999999923e+01 7.211149534882596024e-01
1.423820000000000086e+01 7.333398906778978432e-01
1.427790000000000070e+01 7.366966557450032038e-01
1.431750000000000078e+01 7.374863594658069843e-01
1.435720000000000063e+01 7.500028837972487761e-01
1.439680000000000071e+01 7.649945006698947170e-01
1.443650000000000055e+01 7.750802653493954475e-01
1.447620000000000040e+01 7.838070355818098633e-01
1.451580000000000048e+01 7.830925613984588418e-01
1.455550000000000033e+01 7.886508819168553952e-01
1.459510000000000041e+01 8.088133617821565702e-01
1.463480000000000025e+01 8.209813202704429047e-01
1.467450000000000010e+01 8.176501209484331456e-01
1.471410000000000018e+01 8.175740770248787204e-01
1.475380000000000003e+01 8.195523671040856328e-01
1.479340000000000011e+01 7.919086133831130248e-01
1.483309999999999995e+01 7.680887228109712916e-01
1.487279999999999980e+01 7.467752510597740478e-01
1.491239999999999988e+01 7.563791958206512733e-01
1.495209999999999972e+01 7.698774124978562394e-01
1.499179999999999957e+01 7.809378340963505361e-01
1.503139999999999965e+01 7.752946073403587102e-01
1.507109999999999950e+01 7.754564265018888403e-01
1.511069999999999958e+01 7.907929735889460687e-01
1.515039999999999942e+01 7.980522673461944994e-01
1.519009999999999927e+01 7.967195872801472456e-01
1.522969999999999935e+01 7.854197339564620295e-01
1.526939999999999920e+01 7.976966540646470705e-01
1.530899999999999928e+01 8.283098684003122880e-01
1.534869999999999912e+01 8.857213924512580272e-01
1.538840000000000074e+01 9.164873407621350054e-01
1.542800000000000082e+01 8.526573160731152345e-01
1.546770000000000067e+01 7.838971934227121352e-01
1.550730000000000075e+01 7.275685178949888865e-01
1.554700000000000060e+01 7.117498555923408299e-01
1.558670000000000044e+01 7.069588144019613996e-01
1.562630000000000052e+01 7.179773268541320697e-01
1.566600000000000037e+01 7.256338337089360824e-01
1.570560000000000045e+01 7.283746206307256665e-01
1.574530000000000030e+01 7.421051112984970999e-01
1.578500000000000014e+01 7.514242309089983474e-01
