# energy(eV) alpha
0.000000000000000000e+00 0.000000000000000000e+00
1.919999999999999832e-02 -5.706382797485683113e+03
3.849999999999999950e-02 -1.135241960129119798e+04
5.770000000000000129e-02 -1.681326888519170097e+04
7.699999999999999900e-02 -2.208472874305730875e+04
9.619999999999999385e-02 -2.705028433559667974e+04
1.155000000000000054e-01 -3.171295389591327694e+04
1.346999999999999864e-01 -3.596935083174346801e+04
1.539999999999999980e-01 -3.983230148842909693e+04
1.731999999999999929e-01 -4.321507527148625377e+04
1.925000000000000044e-01 -4.614166814380067080e+04
2.116999999999999993e-01 -4.854395845593386184e+04
2.310000000000000109e-01 -5.045707592779240804e+04
2.501999999999999780e-01 -5.183175372174641961e+04
2.695000000000000173e-01 -5.271279690817190567e+04
2.887000000000000122e-01 -5.306835161228774814e+04
3.079999999999999960e-01 -5.295009695817373722e+04
3.271999999999999909e-01 -5.234056715861096018e+04
3.464999999999999747e-01 -5.129425422992437234e+04
3.657000000000000250e-01 -4.980351049199805857e+04
3.850000000000000089e-01 -4.792017348612502246e+04
4.042000000000000037e-01 -4.563989286576470477e+04
4.234999999999999876e-01 -4.300395127383012004e+04
4.426999999999999824e-01 -4.000076006971523020e+04
4.620000000000000218e-01 -3.664633455959260027e+04
4.812000000000000166e-01 -3.289806347631154495e+04
5.004999999999999449e-01 -2.870358261673413290e+04
5.197000000000000508e-01 -2.389516710761337890e+04
5.390000000000000346e-01 -1.808845937778735242e+04
5.582000000000000295e-01 -9.719689458368658961e+03
5.775000000000000133e-01 -3.267485138571405656e+01
5.967000000000000082e-01 -1.537805638854498547e+01
6.159999999999999920e-01 -9.680058316088496539e+00
6.351999999999999869e-01 -6.644453664839201856e+00
6.544999999999999707e-01 -4.735111202669751940e+00
6.736999999999999655e-01 -3.433133927640232397e+00
6.929999999999999494e-01 -2.508131839915707761e+00
7.122000000000000552e-01 -1.835559665006693875e+00
7.315000000000000391e-01 -1.341595936798903210e+00
7.507000000000000339e-01 -9.769491078540681883e-01
7.700000000000000178e-01 -7.079752094780952243e-01
7.892000000000000126e-01 -5.099076473367555318e-01
8.084999999999999964e-01 -3.647764526342740510e-01
8.276999999999999913e-01 -2.589098448669465147e-01
8.469999999999999751e-01 -1.821977136381723594e-01
8.661999999999999700e-01 -1.269217924071265602e-01
8.854999999999999538e-01 -4.960768851288340636e-02
9.046999999999999487e-01 4.324453267775159489e-03
9.240000000000000435e-01 4.303344428144839640e-03
9.432000000000000384e-01 4.285225624623005374e-03
9.625000000000000222e-01 4.269783028938434200e-03
9.817000000000000171e-01 4.255419355051988546e-03
1.000899999999999901e+00 4.242006582160229300e-03
1.020199999999999996e+00 4.229332030921757919e-03
1.039400000000000102e+00 4.215981947552904785e-03
1.058699999999999974e+00 4.202177176658494773e-03
1.077900000000000080e+00 4.186540628450548425e-03
1.097199999999999953e+00 4.169249857720084933e-03
1.116400000000000059e+00 4.148997606516028995e-03
1.135699999999999932e+00 4.125997931938722545e-03
1.154900000000000038e+00 4.099096042523342476e-03
1.174199999999999910e+00 4.068630666078358431e-03
1.193400000000000016e+00 4.033592171100035088e-03
1.212699999999999889e+00 3.994510419166393163e-03
1.231899999999999995e+00 3.950626615638459967e-03
1.251200000000000090e+00 3.902627343478570765e-03
1.270399999999999974e+00 3.850096780100879194e-03
1.289700000000000069e+00 3.793909598175086110e-03
1.308899999999999952e+00 3.733917610233561390e-03
1.328200000000000047e+00 3.671223863695634911e-03
1.347399999999999931e+00 3.605946986051359552e-03
1.366700000000000026e+00 3.539325275231893549e-03
1.385899999999999910e+00 3.471644867033774062e-03
1.405200000000000005e+00 3.404289805722271467e-03
1.424400000000000110e+00 3.337645386527773091e-03
1.443699999999999983e+00 3.273087369045413197e-03
1.462900000000000089e+00 3.211042971813071745e-03
1.482199999999999962e+00 3.152859880287905980e-03
1.501400000000000068e+00 3.098850518571320215e-03
1.520699999999999941e+00 3.050179078312472477e-03
1.539900000000000047e+00 3.007079236224304616e-03
1.559199999999999919e+00 2.970505436465487037e-03
1.578400000000000025e+00 2.940504290892912657e-03
1.597699999999999898e+00 2.917790221675412802e-03
1.616900000000000004e+00 2.902210133112722353e-03
1.636200000000000099e+00 2.894245956961564396e-03
1.655399999999999983e+00 2.893553239176801292e-03
1.674700000000000077e+00 2.900390960676920479e-03
1.693899999999999961e+00 2.914270084044545683e-03
1.713200000000000056e+00 2.935251847411279869e-03
1.732399999999999940e+00 2.962697399384003113e-03
1.751700000000000035e+00 2.996582009416215442e-03
1.770899999999999919e+00 3.036171943011348965e-03
1.790200000000000014e+00 3.081401378018711057e-03
1.809399999999999897e+00 3.131518225786796613e-03
1.828699999999999992e+00 3.186462641307249207e-03
1.847900000000000098e+00 3.245501111579803585e-03
1.867199999999999971e+00 3.308631116973733462e-03
1.886400000000000077e+00 3.375185002703062764e-03
1.905699999999999950e+00 3.445276104753721477e-03
1.924900000000000055e+00 3.518363613380870447e-03
1.944099999999999939e+00 3.594535755744014075e-03
1.963400000000000034e+00 3.674019499835404993e-03
1.982599999999999918e+00 3.756612233923798620e-03
2.001900000000000013e+00 3.863975211083688684e-03
2.021100000000000119e+00 6.708832324594737884e-03
2.040399999999999991e+00 1.318103337218469451e-01
2.059600000000000097e+00 1.232214986268931112e+00
2.078899999999999970e+00 3.621590525365826263e+00
2.098100000000000076e+00 6.665849657459774313e+00
2.117399999999999949e+00 1.093049676602500142e+01
2.136600000000000055e+00 1.584470878241765490e+01
2.155899999999999928e+00 2.215484100594783357e+01
2.175100000000000033e+00 3.070018533278906148e+01
2.194399999999999906e+00 4.227491178230116731e+01
2.213600000000000012e+00 5.834394214369689990e+01
2.232899999999999885e+00 8.063898916733364786e+01
2.252099999999999991e+00 1.096546415580241813e+02
2.271399999999999864e+00 1.469294573421623227e+02
2.290599999999999969e+00 1.950943737334689843e+02
2.309899999999999842e+00 2.570607384511185955e+02
2.329099999999999948e+00 3.361186365991055709e+02
2.348399999999999821e+00 4.361641334162480348e+02
2.367599999999999927e+00 5.616560732817862345e+02
2.386899999999999800e+00 7.178559844411623772e+02
2.406099999999999905e+00 9.106044365953081297e+02
2.425399999999999778e+00 1.146565914820897433e+03
2.444599999999999884e+00 1.432937588400547611e+03
2.463900000000000201e+00 1.777801771692678813e+03
2.483099999999999863e+00 2.189451959076979620e+03
2.502400000000000180e+00 2.677022432710609337e+03
2.521599999999999842e+00 3.249205588749915478e+03
2.540900000000000158e+00 3.914774632601163830e+03
2.560099999999999820e+00 4.682274970607482828e+03
2.579400000000000137e+00 5.560206893215621676e+03
2.598599999999999799e+00 6.555601150683702144e+03
2.617900000000000116e+00 7.675319549447470308e+03
2.637100000000000222e+00 8.923723240820268984e+03
2.656400000000000095e+00 1.030371873771986429e+04
2.675600000000000200e+00 1.181488521287123149e+04
2.694900000000000073e+00 1.345614451337088212e+04
2.714100000000000179e+00 1.522109396169463616e+04
2.733400000000000052e+00 1.710304157555312486e+04
2.752600000000000158e+00 1.909045149077000679e+04
2.771900000000000031e+00 2.117115659506403972e+04
2.791100000000000136e+00 2.332692278104444267e+04
2.810400000000000009e+00 2.554046385613767416e+04
2.829600000000000115e+00 2.778929595064181558e+04
2.848899999999999988e+00 3.005295523464811777e+04
2.868100000000000094e+00 3.230646447445598824e+04
2.887399999999999967e+00 3.452735291746393341e+04
2.906600000000000072e+00 3.668834145459921274e+04
2.925800000000000178e+00 3.876880465101006121e+04
2.945100000000000051e+00 4.075199146939779894e+04
2.964300000000000157e+00 4.261990791156468185e+04
2.983600000000000030e+00 4.436410925969202799e+04
3.002800000000000136e+00 4.597554587066329987e+04
3.022100000000000009e+00 4.745712609334945591e+04
3.041300000000000114e+00 4.881266134459838941e+04
3.060599999999999987e+00 5.005844926720807416e+04
3.079800000000000093e+00 5.121058526788482413e+04
3.099099999999999966e+00 5.229874006695907883e+04
3.118300000000000072e+00 5.335244651455045823e+04
3.137599999999999945e+00 5.441250771968959452e+04
3.156800000000000050e+00 5.551657634815105121e+04
3.176099999999999923e+00 5.671243578674569289e+04
3.195300000000000029e+00 5.804247381470405526e+04
3.214599999999999902e+00 5.955717237187069259e+04
3.233800000000000008e+00 6.129832001573706657e+04
3.253099999999999881e+00 6.331217257918687392e+04
3.272299999999999986e+00 6.563471202820939652e+04
3.291599999999999859e+00 6.830517957216108334e+04
3.310799999999999965e+00 7.134854952084111574e+04
3.330099999999999838e+00 7.479265802029166662e+04
3.349299999999999944e+00 7.865000980785783031e+04
3.368599999999999817e+00 8.293472084739526326e+04
3.387799999999999923e+00 8.764397999575077847e+04
3.407099999999999795e+00 9.277714098371089494e+04
3.426299999999999901e+00 9.831676814133103471e+04
3.445600000000000218e+00 1.042488445418992924e+05
3.464799999999999880e+00 1.105410129095715092e+05
3.484100000000000197e+00 1.171671099500958080e+05
3.503299999999999859e+00 1.240819137489608111e+05
3.522600000000000176e+00 1.312495097304981900e+05
3.541799999999999837e+00 1.386153371062905062e+05
3.561100000000000154e+00 1.461354124150713906e+05
3.580299999999999816e+00 1.537475207253498083e+05
3.599600000000000133e+00 1.614050224075961451e+05
3.618799999999999795e+00 1.690425415935242490e+05
3.638100000000000112e+00 1.766126059127894696e+05
3.657300000000000217e+00 1.840507771507288853e+05
3.676600000000000090e+00 1.913142582216409501e+05
3.695800000000000196e+00 1.983435337256856437e+05
3.715100000000000069e+00 2.051035285776857927e+05
3.734300000000000175e+00 2.115434959279474861e+05
3.753600000000000048e+00 2.176420522118378722e+05
3.772800000000000153e+00 2.233624454242441279e+05
3.792100000000000026e+00 2.286991750550167635e+05
3.811300000000000132e+00 2.336329547428856313e+05
3.830600000000000005e+00 2.381770609804680571e+05
3.849800000000000111e+00 2.423294261837300146e+05
3.869099999999999984e+00 2.461247198172089120e+05
3.888300000000000090e+00 2.495832400976702338e+05
3.907500000000000195e+00 2.527512011049836874e+05
3.926800000000000068e+00 2.556846550554432906e+05
3.946000000000000174e+00 2.584252973892310110e+05
3.965300000000000047e+00 2.610469486167625582e+05
3.984500000000000153e+00 2.636012272749893600e+05
4.003800000000000026e+00 2.661676176658368786e+05
4.022999999999999687e+00 2.687997219274917734e+05
4.042300000000000004e+00 2.715776254582629772e+05
4.061499999999999666e+00 2.745495061188152176e+05
4.080799999999999983e+00 2.777840810380689218e+05
4.099999999999999645e+00 2.813164666202054941e+05
4.119299999999999962e+00 2.852009438325904775e+05
4.138499999999999623e+00 2.894559090559871402e+05
4.157799999999999940e+00 2.941181373515534215e+05
4.176999999999999602e+00 2.991867745760643738e+05
4.196299999999999919e+00 3.046793413961674087e+05
4.215499999999999581e+00 3.105754428683778387e+05
4.234799999999999898e+00 3.168753780192915001e+05
4.253999999999999559e+00 3.235415615236102021e+05
4.273299999999999876e+00 3.305592583226737916e+05
4.292500000000000426e+00 3.378769053234891035e+05
4.311799999999999855e+00 3.454692208468192257e+05
4.331000000000000405e+00 3.532755752927104477e+05
4.350299999999999834e+00 3.612631169950792100e+05
4.369500000000000384e+00 3.693650201104746666e+05
4.388799999999999812e+00 3.775465177292093285e+05
4.408000000000000362e+00 3.857384656429670868e+05
4.427299999999999791e+00 3.939070980748884031e+05
4.446500000000000341e+00 4.019861458474594983e+05
4.465799999999999770e+00 4.099470454093294684e+05
4.485000000000000320e+00 4.177276634288650821e+05
4.504299999999999748e+00 4.253067248269816046e+05
4.523500000000000298e+00 4.326284947211689432e+05
4.542799999999999727e+00 4.396784934010458528e+05
4.562000000000000277e+00 4.464085614384400542e+05
4.581299999999999706e+00 4.528136584132700227e+05
4.600500000000000256e+00 4.588525694751826231e+05
4.619799999999999685e+00 4.645268194264070480e+05
4.639000000000000234e+00 4.698013941078205244e+05
4.658299999999999663e+00 4.746838913248943281e+05
4.677500000000000213e+00 4.791459421049596858e+05
4.696799999999999642e+00 4.832023786068827030e+05
4.716000000000000192e+00 4.868259286085455678e+05
4.735299999999999621e+00 4.900306263561673113e+05
4.754500000000000171e+00 4.927917711069413926e+05
4.773799999999999599e+00 4.951282142772739753e+05
4.793000000000000149e+00 4.970189897386173834e+05
4.812299999999999578e+00 4.984861038496426772e+05
4.831500000000000128e+00 4.995114958849116229e+05
4.850699999999999790e+00 5.001116768043648335e+05
4.870000000000000107e+00 5.003068936329306453e+05
4.889199999999999768e+00 5.000893019612974604e+05
4.908500000000000085e+00 4.994957128202630556e+05
4.927699999999999747e+00 4.985279103822333855e+05
4.947000000000000064e+00 4.972344539685666678e+05
4.966199999999999726e+00 4.956284279928781907e+05
4.985500000000000043e+00 4.937686424097318086e+05
5.004699999999999704e+00 4.916784195046228706e+05
5.024000000000000021e+00 4.894261670982495998e+05
5.043199999999999683e+00 4.870460971087366343e+05
5.062500000000000000e+00 4.846132230962556205e+05
5.081699999999999662e+00 4.821658769602042157e+05
5.100999999999999979e+00 4.797820665257633082e+05
5.120199999999999640e+00 4.774993312334868242e+05
5.139499999999999957e+00 4.753899795629486325e+05
5.158699999999999619e+00 4.734851674570897594e+05
5.177999999999999936e+00 4.718474204074754380e+05
5.197199999999999598e+00 4.704957573535342817e+05
5.216499999999999915e+00 4.694760450166485389e+05
5.235699999999999577e+00 4.687898913353485405e+05
5.254999999999999893e+00 4.684662345148508321e+05
5.274200000000000443e+00 4.684886741530862637e+05
5.293499999999999872e+00 4.688687328746987623e+05
5.312700000000000422e+00 4.695729912230376503e+05
5.331999999999999851e+00 4.705966808448903612e+05
5.351200000000000401e+00 4.718947549950993271e+05
5.370499999999999829e+00 4.734519369030785747e+05
5.389700000000000379e+00 4.752121346353413537e+05
5.408999999999999808e+00 4.771528441195294145e+05
5.428200000000000358e+00 4.792145655301697552e+05
5.447499999999999787e+00 4.813710210846362752e+05
5.466700000000000337e+00 4.835603369597545243e+05
5.485999999999999766e+00 4.857561408127401955e+05
5.505200000000000315e+00 4.878987284614134114e+05
5.524499999999999744e+00 4.899640716243605129e+05
5.543700000000000294e+00 4.918927098930007778e+05
5.562999999999999723e+00 4.936631250988299144e+05
5.582200000000000273e+00 4.952208353664427996e+05
5.601499999999999702e+00 4.965474522902428289e+05
5.620700000000000252e+00 4.975935840574798640e+05
5.639999999999999680e+00 4.983473470710208057e+05
5.659200000000000230e+00 4.987624269717030693e+05
5.678499999999999659e+00 4.988314349820996285e+05
5.697700000000000209e+00 4.985152196407730225e+05
5.716999999999999638e+00 4.978133883614499937e+05
5.736200000000000188e+00 4.966941269265644369e+05
5.755499999999999616e+00 4.951637761387671926e+05
5.774700000000000166e+00 4.931987175795781077e+05
5.793999999999999595e+00 4.908137642229879275e+05
5.813200000000000145e+00 4.879935696190688759e+05
5.832399999999999807e+00 4.847533860889739008e+05
5.851700000000000124e+00 4.811130242928763037e+05
5.870899999999999785e+00 4.770720246591807809e+05
5.890200000000000102e+00 4.726678547303783707e+05
5.909399999999999764e+00 4.679105735342050320e+05
5.928700000000000081e+00 4.628458333431349020e+05
5.947899999999999743e+00 4.574917624783010106e+05
5.967200000000000060e+00 4.519015071302137803e+05
5.986399999999999721e+00 4.461016105325344834e+05
6.005700000000000038e+00 4.401518873269003234e+05
6.024899999999999700e+00 4.340838403261988424e+05
6.044200000000000017e+00 4.279606663500379655e+05
6.063399999999999679e+00 4.218177635967925307e+05
6.082699999999999996e+00 4.157189890843525063e+05
6.101899999999999658e+00 4.096997260940737906e+05
6.121199999999999974e+00 4.038215442172273179e+05
6.140399999999999636e+00 3.981175337110550026e+05
6.159699999999999953e+00 3.926436980918085319e+05
6.178899999999999615e+00 3.874270809374198434e+05
6.198199999999999932e+00 3.825174755847623455e+05
6.217399999999999594e+00 3.779352962082228623e+05
6.236699999999999910e+00 3.737213713134116842e+05
6.255899999999999572e+00 3.698868669252932887e+05
6.275199999999999889e+00 3.664621586556786788e+05
6.294400000000000439e+00 3.634499623694469337e+05
6.313699999999999868e+00 3.608716876493928139e+05
6.332900000000000418e+00 3.587209851398605970e+05
6.352199999999999847e+00 3.570097409823327325e+05
6.371400000000000396e+00 3.557237367232265533e+05
6.390699999999999825e+00 3.548673275926855276e+05
6.409900000000000375e+00 3.544185667708372348e+05
6.429199999999999804e+00 3.543745484367599711e+05
6.448400000000000354e+00 3.547074502777793095e+05
6.467699999999999783e+00 3.554088194116543164e+05
6.486900000000000333e+00 3.564463764356038882e+05
6.506199999999999761e+00 3.578079110150632914e+05
6.525400000000000311e+00 3.594574027065480477e+05
6.544699999999999740e+00 3.613798484000393073e+05
6.563900000000000290e+00 3.635370751626975834e+05
6.583199999999999719e+00 3.659124613314382732e+05
6.602400000000000269e+00 3.684675690144108958e+05
6.621699999999999697e+00 3.711862696493749390e+05
6.640900000000000247e+00 3.740301585291559459e+05
6.660199999999999676e+00 3.769842364350288990e+05
6.679400000000000226e+00 3.800122342203065637e+05
6.698699999999999655e+00 3.831014412251862814e+05
6.717900000000000205e+00 3.862177799782010843e+05
6.737199999999999633e+00 3.893514190590123762e+05
6.756400000000000183e+00 3.924713352323629078e+05
6.775699999999999612e+00 3.955714648011000245e+05
6.794900000000000162e+00 3.986245242162142531e+05
6.814099999999999824e+00 4.016224038809921476e+05
6.833400000000000141e+00 4.045591013284691726e+05
6.852599999999999802e+00 4.074127519242053968e+05
6.871900000000000119e+00 4.101867119197878637e+05
6.891099999999999781e+00 4.128628994649480446e+05
6.910400000000000098e+00 4.154488920211918303e+05
6.929599999999999760e+00 4.179295605322664487e+05
6.948900000000000077e+00 4.203152252856626292e+05
6.968099999999999739e+00 4.225934951541495975e+05
6.987400000000000055e+00 4.247773639290858991e+05
7.006599999999999717e+00 4.268563962174883927e+05
7.025900000000000034e+00 4.288454389127576142e+05
7.045099999999999696e+00 4.307355173956230865e+05
7.064400000000000013e+00 4.325426526084738434e+05
7.083599999999999675e+00 4.342588579296733369e+05
7.102899999999999991e+00 4.359007371126055368e+05
7.122099999999999653e+00 4.374604313431394403e+05
7.141399999999999970e+00 4.389545697283169138e+05
7.160599999999999632e+00 4.403751885840519681e+05
7.179899999999999949e+00 4.417386413576399791e+05
7.199099999999999611e+00 4.430364793964508572e+05
7.218399999999999928e+00 4.442843956818275619e+05
7.237599999999999589e+00 4.454725466209106962e+05
7.256899999999999906e+00 4.466159222370081116e+05
7.276099999999999568e+00 4.477046347904764116e+05
7.295399999999999885e+00 4.487528696088981233e+05
7.314600000000000435e+00 4.497497093731222558e+05
7.333899999999999864e+00 4.507084985538697219e+05
7.353100000000000414e+00 4.516177631951076328e+05
7.372399999999999842e+00 4.524902927674045204e+05
7.391600000000000392e+00 4.533143604373970884e+05
7.410899999999999821e+00 4.541026101464805542e+05
7.430100000000000371e+00 4.548430444609064143e+05
7.449399999999999800e+00 4.555485651749764220e+05
7.468600000000000350e+00 4.562080944736006786e+05
7.487899999999999778e+00 4.568351396274197032e+05
7.507100000000000328e+00 4.574191017705634586e+05
7.526399999999999757e+00 4.579746408133565565e+05
7.545600000000000307e+00 4.584934457351661404e+05
7.564899999999999736e+00 4.589922401610038360e+05
7.584100000000000286e+00 4.594646093013547943e+05
7.603399999999999714e+00 4.599304815925555886e+05
7.622600000000000264e+00 4.603877404181366437e+05
7.641899999999999693e+00 4.608600426285979338e+05
